  60.39
  57.36
  54.30
  51.23
  48.18
  45.16
  42.15
  39.08
  36.04
  33.02
  30.04
  27.07
  24.09
  21.12
  18.08
  15.03
  11.98
   9.00
   5.95
   2.91
  -0.14
  -3.13
  -6.11
  -9.10
 -12.01
 -15.07
 -18.11
 -21.17
 -24.10
 -27.10
 -30.11
 -33.11
 -36.17
 -39.23
 -42.19
 -45.16
 -48.13
 -51.07
 -53.98
 -56.89
 -59.84
