  61.53
  58.48
  55.45
  52.43
  49.51
  46.44
  43.38
  40.52
  37.19
  33.85
  30.28
  26.70
  23.10
  20.35
  17.58
  14.82
  12.04
   9.16
   6.16
   3.16
   0.16
  -2.80
  -5.75
  -8.72
 -11.71
 -14.72
 -17.72
 -20.73
 -23.67
 -26.59
 -29.52
 -32.48
 -35.43
 -38.39
 -41.30
 -44.21
 -47.12
 -50.00
 -52.86
 -55.72
 -58.62
