  29.39
  26.58
  23.75
  20.93
  17.95
  14.97
  11.90
   8.99
   6.08
   3.17
   0.19
  -2.79
  -5.80
  -8.78
 -11.78
 -14.76
 -17.75
 -20.69
 -23.52
 -26.36
 -29.29
 -32.22
 -35.17
 -38.05
 -40.92
 -43.79
 -46.66
 -49.54
 -52.37
 -55.20
 -58.04
