  60.93
  57.83
  54.78
  51.74
  48.73
  45.68
  42.63
  39.64
  36.45
  33.26
  30.04
  26.82
  23.58
  20.56
  17.60
  14.63
  11.67
   8.77
   5.80
   2.84
  -0.13
  -3.11
  -6.10
  -9.09
 -12.05
 -15.12
 -18.18
 -21.25
 -24.26
 -27.20
 -30.13
 -33.07
 -36.09
 -39.11
 -42.09
 -44.93
 -47.78
 -50.68
 -53.59
 -56.51
 -59.43
