  62.02
  58.99
  55.92
  52.85
  49.81
  46.70
  43.59
  40.57
  37.23
  33.89
  30.40
  26.92
  23.43
  20.55
  17.79
  15.03
  12.28
   9.38
   6.09
   2.79
  -0.49
  -3.38
  -6.26
  -9.15
 -11.71
 -14.68
 -17.65
 -20.62
 -23.51
 -26.47
 -29.44
 -32.40
 -35.36
 -38.31
 -41.32
 -44.31
 -47.30
 -50.26
 -53.16
 -56.06
 -58.97
