  59.82
  56.66
  53.70
  50.74
  47.76
  44.69
  41.62
  38.57
  35.81
  33.04
  30.28
  27.59
  24.89
  21.81
  18.74
  15.67
  12.60
   9.37
   6.23
   3.08
  -0.04
  -3.04
  -6.04
  -9.04
 -11.99
 -14.95
 -17.91
 -20.87
 -23.82
 -26.82
 -29.82
 -32.82
 -35.88
 -38.92
 -41.91
 -44.91
 -47.90
 -50.88
 -53.86
 -56.86
 -59.86
