  59.46
  56.37
  53.36
  50.35
  47.30
  44.29
  41.27
  38.18
  35.27
  32.36
  29.54
  26.72
  23.90
  20.93
  17.92
  14.90
  11.89
   8.90
   6.06
   3.22
   0.39
  -2.65
  -5.68
  -8.72
 -11.94
 -14.99
 -18.03
 -21.09
 -24.12
 -27.14
 -30.18
 -33.21
 -36.22
 -39.23
 -42.22
 -45.26
 -48.29
 -51.29
 -54.28
 -57.28
 -60.30
