1	-0005.00	-0001.51	061.580	000.000	090.000	1.0019395	0.0016879	-0.0016879	1.0019395	6.000000e+01	5.250000e-08	-9.599311e-01	1.000000e+00	-3.832239e-06	2.170000e-10	2.700000e-03	1.968697e-12	8.500000e-02	3838	3710	41
41	-0006.74	-0002.04	-58.700	000.000	090.000	1.0015723	0.0006772	-0.0006772	1.0015723	4.536585e+01	5.250000e-08	-9.599311e-01	1.000000e+00	-3.798599e-06	2.170000e-10	2.700000e-03	1.968697e-12	8.500000e-02	3838	3710	41
2	-0004.30	-0002.51	058.530	000.000	090.000	1.0002134	0.0004185	-0.0004185	1.0002134	5.853659e+01	5.250000e-08	-9.599311e-01	1.000000e+00	-3.837508e-06	2.170000e-10	2.700000e-03	1.968697e-12	8.500000e-02	3838	3710	41
40	-0007.44	-0000.30	-55.810	000.000	090.000	1.0011824	0.0003094	-0.0003094	1.0011824	4.390244e+01	5.250000e-08	-9.599311e-01	1.000000e+00	-3.889508e-06	2.170000e-10	2.700000e-03	1.968697e-12	8.500000e-02	3838	3710	41
3	-0002.31	-0001.35	055.460	000.000	090.000	1.0008281	0.0009003	-0.0009003	1.0008281	5.707317e+01	5.250000e-08	-9.599311e-01	1.000000e+00	-3.940490e-06	2.170000e-10	2.700000e-03	1.968697e-12	8.500000e-02	3838	3710	41
39	-0007.32	00000.51	-52.910	000.000	090.000	1.0001673	0.0009163	-0.0009163	1.0001673	4.243902e+01	5.250000e-08	-9.599311e-01	1.000000e+00	-4.107636e-06	2.170000e-10	2.700000e-03	1.968697e-12	8.500000e-02	3838	3710	41
4	-0002.36	-0001.46	052.420	000.000	090.000	0.9997265	0.0009700	-0.0009700	0.9997265	5.560976e+01	5.250000e-08	-9.599311e-01	1.000000e+00	-3.927403e-06	2.170000e-10	2.700000e-03	1.968697e-12	8.500000e-02	3838	3710	41
38	-0007.64	-0000.25	-50.020	000.000	090.000	1.0010978	0.0009841	-0.0009841	1.0010978	4.097561e+01	5.250000e-08	-9.599311e-01	1.000000e+00	-3.976415e-06	2.170000e-10	2.700000e-03	1.968697e-12	8.500000e-02	3838	3710	41
5	-0001.59	00000.13	049.380	000.000	090.000	0.9989168	0.0011982	-0.0011982	0.9989168	5.414634e+01	5.250000e-08	-9.599311e-01	1.000000e+00	-4.009519e-06	2.170000e-10	2.700000e-03	1.968697e-12	8.500000e-02	3838	3710	41
37	-0006.39	-0000.57	-47.110	000.000	090.000	1.0003079	0.0012058	-0.0012058	1.0003079	3.951220e+01	5.250000e-08	-9.599311e-01	1.000000e+00	-4.240212e-06	2.170000e-10	2.700000e-03	1.968697e-12	8.500000e-02	3838	3710	41
6	-0002.19	-0000.12	046.330	000.000	090.000	0.9999455	0.0027796	-0.0027796	0.9999455	5.268293e+01	5.250000e-08	-9.599311e-01	1.000000e+00	-4.066043e-06	2.170000e-10	2.700000e-03	1.968697e-12	8.500000e-02	3838	3710	41
36	-0007.19	00000.10	-44.200	000.000	090.000	1.0015517	0.0013789	-0.0013789	1.0015517	3.804878e+01	5.250000e-08	-9.599311e-01	1.000000e+00	-4.324261e-06	2.170000e-10	2.700000e-03	1.968697e-12	8.500000e-02	3838	3710	41
7	-0003.26	-0000.03	043.280	000.000	090.000	1.0008438	0.0026904	-0.0026904	1.0008438	5.121951e+01	5.250000e-08	-9.599311e-01	1.000000e+00	-4.822355e-06	2.170000e-10	2.700000e-03	1.968697e-12	8.500000e-02	3838	3710	41
35	-0006.72	00000.86	-41.290	000.000	090.000	1.0030984	0.0022425	-0.0022425	1.0030984	3.658537e+01	5.250000e-08	-9.599311e-01	1.000000e+00	-4.645250e-06	2.170000e-10	2.700000e-03	1.968697e-12	8.500000e-02	3838	3710	41
8	-0000.79	00000.63	040.320	000.000	090.000	0.9989881	0.0013178	-0.0013178	0.9989881	4.975610e+01	5.250000e-08	-9.599311e-01	1.000000e+00	-4.293296e-06	2.170000e-10	2.700000e-03	1.968697e-12	8.500000e-02	3838	3710	41
34	-0005.19	00000.20	-38.390	000.000	090.000	1.0011597	0.0023360	-0.0023360	1.0011597	3.512195e+01	5.250000e-08	-9.599311e-01	1.000000e+00	-4.441510e-06	2.170000e-10	2.700000e-03	1.968697e-12	8.500000e-02	3838	3710	41
9	-0002.14	-0000.31	037.150	000.000	090.000	1.0000286	0.0023648	-0.0023648	1.0000286	4.829268e+01	5.250000e-08	-9.599311e-01	1.000000e+00	-4.282980e-06	2.170000e-10	2.700000e-03	1.968697e-12	8.500000e-02	3838	3710	41
33	-0004.23	00000.17	-35.450	000.000	090.000	1.0009384	0.0027811	-0.0027811	1.0009384	3.365854e+01	5.250000e-08	-9.599311e-01	1.000000e+00	-4.608664e-06	2.170000e-10	2.700000e-03	1.968697e-12	8.500000e-02	3838	3710	41
10	-0002.85	00000.35	033.880	000.000	090.000	1.0020590	0.0017531	-0.0017531	1.0020590	4.682927e+01	5.250000e-08	-9.599311e-01	1.000000e+00	-3.775965e-06	2.170000e-10	2.700000e-03	1.968697e-12	8.500000e-02	3838	3710	41
32	-0004.53	00001.10	-32.550	000.000	090.000	0.9999916	0.0034513	-0.0034513	0.9999916	3.219512e+01	5.250000e-08	-9.599311e-01	1.000000e+00	-3.969091e-06	2.170000e-10	2.700000e-03	1.968697e-12	8.500000e-02	3838	3710	41
11	00000.63	00000.92	030.620	000.000	090.000	1.0003164	0.0040411	-0.0040411	1.0003164	1.463415e+00	5.250000e-08	-9.599311e-01	1.000000e+00	-3.882048e-06	2.170000e-10	2.700000e-03	1.968697e-12	8.500000e-02	3838	3710	41
31	-0004.41	-0000.40	-29.640	000.000	090.000	1.0006122	0.0027558	-0.0027558	1.0006122	3.073171e+01	5.250000e-08	-9.599311e-01	1.000000e+00	-3.845571e-06	2.170000e-10	2.700000e-03	1.968697e-12	8.500000e-02	3838	3710	41
12	00000.96	00001.56	027.360	000.000	090.000	1.0003544	0.0037201	-0.0037201	1.0003544	2.926829e+00	5.250000e-08	-9.599311e-01	1.000000e+00	-4.256777e-06	2.170000e-10	2.700000e-03	1.968697e-12	8.500000e-02	3838	3710	41
30	00011.49	00003.62	-26.750	000.000	090.000	1.0028817	-0.0005370	0.0005370	1.0028817	2.926829e+01	5.250000e-08	-9.599311e-01	1.000000e+00	-3.930859e-06	2.170000e-10	2.700000e-03	1.968697e-12	8.500000e-02	3838	3710	41
13	-0000.04	00000.92	024.070	000.000	090.000	1.0014015	0.0032931	-0.0032931	1.0014016	4.390244e+00	5.250000e-08	-9.599311e-01	1.000000e+00	-4.461706e-06	2.170000e-10	2.700000e-03	1.968697e-12	8.500000e-02	3838	3710	41
29	-0003.68	00000.06	-23.850	000.000	090.000	1.0006691	0.0030993	-0.0030993	1.0006691	2.780488e+01	5.250000e-08	-9.599311e-01	1.000000e+00	-4.151025e-06	2.170000e-10	2.700000e-03	1.968697e-12	8.500000e-02	3838	3710	41
14	00000.19	00000.96	021.000	000.000	090.000	1.0014556	0.0033780	-0.0033780	1.0014556	5.853659e+00	5.250000e-08	-9.599311e-01	1.000000e+00	-4.631192e-06	2.170000e-10	2.700000e-03	1.968697e-12	8.500000e-02	3838	3710	41
28	-0004.87	00000.32	-20.720	000.000	090.000	1.0010816	0.0028412	-0.0028412	1.0010816	2.634146e+01	5.250000e-08	-9.599311e-01	1.000000e+00	-4.335578e-06	2.170000e-10	2.700000e-03	1.968697e-12	8.500000e-02	3838	3710	41
15	00000.48	00000.80	017.920	000.000	090.000	1.0022636	0.0025898	-0.0025898	1.0022636	7.317073e+00	5.250000e-08	-9.599311e-01	1.000000e+00	-4.467684e-06	2.170000e-10	2.700000e-03	1.968697e-12	8.500000e-02	3838	3710	41
27	-0002.48	-0000.99	-17.630	000.000	090.000	1.0002668	0.0023661	-0.0023661	1.0002668	2.487805e+01	5.250000e-08	-9.599311e-01	1.000000e+00	-4.295364e-06	2.170000e-10	2.700000e-03	1.968697e-12	8.500000e-02	3838	3710	41
16	00000.66	00000.15	015.080	000.000	090.000	1.0009966	0.0028423	-0.0028423	1.0009966	8.780488e+00	5.250000e-08	-9.599311e-01	1.000000e+00	-4.465582e-06	2.170000e-10	2.700000e-03	1.968697e-12	8.500000e-02	3838	3710	41
26	-0002.24	-0001.87	-14.550	000.000	090.000	1.0000212	0.0016218	-0.0016218	1.0000212	2.341463e+01	5.250000e-08	-9.599311e-01	1.000000e+00	-4.303355e-06	2.170000e-10	2.700000e-03	1.968697e-12	8.500000e-02	3838	3710	41
17	-0000.17	00001.11	012.250	000.000	090.000	1.0006825	0.0025990	-0.0025990	1.0006825	1.024390e+01	5.250000e-08	-9.599311e-01	1.000000e+00	-4.438090e-06	2.170000e-10	2.700000e-03	1.968697e-12	8.500000e-02	3838	3710	41
25	-0001.56	-0000.05	-11.450	000.000	090.000	0.9994868	0.0019190	-0.0019190	0.9994867	2.195122e+01	5.250000e-08	-9.599311e-01	1.000000e+00	-4.299044e-06	2.170000e-10	2.700000e-03	1.968697e-12	8.500000e-02	3838	3710	41
18	-0001.33	00000.70	009.420	000.000	090.000	1.0009438	0.0015186	-0.0015186	1.0009438	1.170732e+01	5.250000e-08	-9.599311e-01	1.000000e+00	-4.420519e-06	2.170000e-10	2.700000e-03	1.968697e-12	8.500000e-02	3838	3710	41
24	-0000.41	-0001.15	-08.370	000.000	090.000	1.0001260	0.0017274	-0.0017274	1.0001260	2.048780e+01	5.250000e-08	-9.599311e-01	1.000000e+00	-4.323802e-06	2.170000e-10	2.700000e-03	1.968697e-12	8.500000e-02	3838	3710	41
19	00000.19	00000.85	006.530	000.000	090.000	1.0007030	0.0023136	-0.0023136	1.0007030	1.317073e+01	5.250000e-08	-9.599311e-01	1.000000e+00	-4.436762e-06	2.170000e-10	2.700000e-03	1.968697e-12	8.500000e-02	3838	3710	41
23	-0002.00	-0000.40	-05.390	000.000	090.000	1.0008586	0.0024215	-0.0024215	1.0008586	1.902439e+01	5.250000e-08	-9.599311e-01	1.000000e+00	-4.322921e-06	2.170000e-10	2.700000e-03	1.968697e-12	8.500000e-02	3838	3710	41
20	00000.16	00000.22	003.660	000.000	090.000	0.9999766	0.0026686	-0.0026686	0.9999766	1.463415e+01	5.250000e-08	-9.599311e-01	1.000000e+00	-4.428335e-06	2.170000e-10	2.700000e-03	1.968697e-12	8.500000e-02	3838	3710	41
22	-0001.06	-0000.01	-02.420	000.000	090.000	1.0003641	0.0018591	-0.0018591	1.0003641	1.756098e+01	5.250000e-08	-9.599311e-01	1.000000e+00	-4.428941e-06	2.170000e-10	2.700000e-03	1.968697e-12	8.500000e-02	3838	3710	41
21	00000.40	-0000.91	000.760	000.000	090.000	0.9999979	0.0020277	-0.0020277	0.9999979	1.609756e+01	5.250000e-08	-9.599311e-01	1.000000e+00	-4.415526e-06	2.170000e-10	2.700000e-03	1.968697e-12	8.500000e-02	3838	3710	41
