31	-0044.89	00000.04	-57.880	000.000	090.000	0.9976821	0.0021624	-0.0021624	0.9976821	6.000000e+01	6.375000e-08	-1.213004e+00	1.000000e+00	-3.272763e-06	2.170000e-10	2.700000e-03	1.968697e-12	8.500000e-02	3838	3710	31
30	-0044.50	00000.30	-55.040	000.000	090.000	0.9967718	0.0015071	-0.0015071	0.9967719	5.612903e+01	6.375000e-08	-1.213004e+00	1.000000e+00	-3.313059e-06	2.170000e-10	2.700000e-03	1.968697e-12	8.500000e-02	3838	3710	31
29	-0042.28	00001.78	-52.220	000.000	090.000	0.9975453	0.0017996	-0.0017996	0.9975455	5.419355e+01	6.375000e-08	-1.213004e+00	1.000000e+00	-3.661325e-06	2.170000e-10	2.700000e-03	1.968697e-12	8.500000e-02	3838	3710	31
28	-0040.88	00001.26	-49.400	000.000	090.000	0.9984238	0.0008445	-0.0008445	0.9984238	1.000000e+00	6.375000e-08	-1.213004e+00	1.000000e+00	-3.760093e-06	2.170000e-10	2.700000e-03	1.968697e-12	8.500000e-02	3838	3710	31
27	-0039.35	00000.66	-46.510	000.000	090.000	0.9978180	0.0006375	-0.0006375	0.9978181	5.225806e+01	6.375000e-08	-1.213004e+00	1.000000e+00	-3.900082e-06	2.170000e-10	2.700000e-03	1.968697e-12	8.500000e-02	3838	3710	31
26	-0038.94	00001.30	-43.620	000.000	090.000	0.9981386	0.0001327	-0.0001327	0.9981387	5.032258e+01	6.375000e-08	-1.213004e+00	1.000000e+00	-4.012088e-06	2.170000e-10	2.700000e-03	1.968697e-12	8.500000e-02	3838	3710	31
25	-0037.39	00001.27	-40.740	000.000	090.000	0.9980685	0.0006511	-0.0006511	0.9980685	4.838710e+01	6.375000e-08	-1.213004e+00	1.000000e+00	-3.988351e-06	2.170000e-10	2.700000e-03	1.968697e-12	8.500000e-02	3838	3710	31
24	-0034.67	00001.09	-37.860	000.000	090.000	0.9980717	0.0004059	-0.0004059	0.9980717	4.645161e+01	6.375000e-08	-1.213004e+00	1.000000e+00	-4.060182e-06	2.170000e-10	2.700000e-03	1.968697e-12	8.500000e-02	3838	3710	31
23	-0033.52	00000.69	-34.980	000.000	090.000	0.9979932	0.0003330	-0.0003330	0.9979933	4.451613e+01	6.375000e-08	-1.213004e+00	1.000000e+00	-4.120330e-06	2.170000e-10	2.700000e-03	1.968697e-12	8.500000e-02	3838	3710	31
22	-0031.80	00001.20	-32.040	000.000	090.000	0.9979155	0.0002567	-0.0002567	0.9979155	4.258065e+01	6.375000e-08	-1.213004e+00	1.000000e+00	-4.065557e-06	2.170000e-10	2.700000e-03	1.968697e-12	8.500000e-02	3838	3710	31
1	00008.92	-0001.15	029.390	000.000	090.000	0.9991390	0.0011557	-0.0011557	0.9991391	1.935484e+00	6.375000e-08	-1.213004e+00	1.000000e+00	-4.390543e-06	2.170000e-10	2.700000e-03	1.968697e-12	8.500000e-02	3838	3710	31
21	-0030.19	00000.07	-29.130	000.000	090.000	0.9991508	-0.0002263	0.0002263	0.9991508	4.064516e+01	6.375000e-08	-1.213004e+00	1.000000e+00	-4.025886e-06	2.170000e-10	2.700000e-03	1.968697e-12	8.500000e-02	3838	3710	31
2	00008.23	-0000.58	026.520	000.000	090.000	0.9990756	0.0013623	-0.0013623	0.9990756	3.870968e+00	6.375000e-08	-1.213004e+00	1.000000e+00	-4.348700e-06	2.170000e-10	2.700000e-03	1.968697e-12	8.500000e-02	3838	3710	31
20	-0028.13	00000.20	-26.220	000.000	090.000	0.9982001	0.0004755	-0.0004755	0.9982002	3.870968e+01	6.375000e-08	-1.213004e+00	1.000000e+00	-4.043328e-06	2.170000e-10	2.700000e-03	1.968697e-12	8.500000e-02	3838	3710	31
3	00005.49	-0001.77	023.640	000.000	090.000	0.9996801	0.0012918	-0.0012918	0.9996801	5.806452e+00	6.375000e-08	-1.213004e+00	1.000000e+00	-4.295463e-06	2.170000e-10	2.700000e-03	1.968697e-12	8.500000e-02	3838	3710	31
19	-0025.56	00000.65	-23.320	000.000	090.000	0.9978952	0.0005850	-0.0005850	0.9978953	3.677419e+01	6.375000e-08	-1.213004e+00	1.000000e+00	-4.089898e-06	2.170000e-10	2.700000e-03	1.968697e-12	8.500000e-02	3838	3710	31
4	00003.22	-0002.05	020.770	000.000	090.000	0.9989248	0.0016124	-0.0016124	0.9989249	7.741935e+00	6.375000e-08	-1.213004e+00	1.000000e+00	-4.255026e-06	2.170000e-10	2.700000e-03	1.968697e-12	8.500000e-02	3838	3710	31
18	-0024.10	-0000.37	-20.400	000.000	090.000	0.9987277	0.0010512	-0.0010512	0.9987278	3.483871e+01	6.375000e-08	-1.213004e+00	1.000000e+00	-4.114889e-06	2.170000e-10	2.700000e-03	1.968697e-12	8.500000e-02	3838	3710	31
5	00003.05	-0001.73	017.890	000.000	090.000	0.9987129	0.0018236	-0.0018236	0.9987132	9.677419e+00	6.375000e-08	-1.213004e+00	1.000000e+00	-4.166232e-06	2.170000e-10	2.700000e-03	1.968697e-12	8.500000e-02	3838	3710	31
17	-0021.79	00000.35	-17.450	000.000	090.000	0.9988323	0.0009561	-0.0009561	0.9988324	3.290323e+01	6.375000e-08	-1.213004e+00	1.000000e+00	-4.120446e-06	2.170000e-10	2.700000e-03	1.968697e-12	8.500000e-02	3838	3710	31
6	00001.36	-0001.39	015.010	000.000	090.000	0.9980170	0.0014642	-0.0014642	0.9980171	1.161290e+01	6.375000e-08	-1.213004e+00	1.000000e+00	-4.172102e-06	2.170000e-10	2.700000e-03	1.968697e-12	8.500000e-02	3838	3710	31
16	-0018.83	-0000.25	-14.500	000.000	090.000	0.9980771	0.0013981	-0.0013981	0.9980772	3.096774e+01	6.375000e-08	-1.213004e+00	1.000000e+00	-4.139638e-06	2.170000e-10	2.700000e-03	1.968697e-12	8.500000e-02	3838	3710	31
7	00000.11	-0000.43	012.060	000.000	090.000	0.9984634	0.0011864	-0.0011864	0.9984634	1.354839e+01	6.375000e-08	-1.213004e+00	1.000000e+00	-4.176674e-06	2.170000e-10	2.700000e-03	1.968697e-12	8.500000e-02	3838	3710	31
15	-0017.05	-0000.38	-11.560	000.000	090.000	0.9983887	0.0011369	-0.0011369	0.9983888	2.903226e+01	6.375000e-08	-1.213004e+00	1.000000e+00	-4.132107e-06	2.170000e-10	2.700000e-03	1.968697e-12	8.500000e-02	3838	3710	31
8	-0001.79	-0000.87	009.090	000.000	090.000	0.9980425	0.0008613	-0.0008613	0.9980427	1.548387e+01	6.375000e-08	-1.213004e+00	1.000000e+00	-4.078648e-06	2.170000e-10	2.700000e-03	1.968697e-12	8.500000e-02	3838	3710	31
14	-0014.86	00000.04	-08.600	000.000	090.000	0.9976309	0.0009703	-0.0009703	0.9976311	2.709677e+01	6.375000e-08	-1.213004e+00	1.000000e+00	-4.124565e-06	2.170000e-10	2.700000e-03	1.968697e-12	8.500000e-02	3838	3710	31
9	-0003.73	-0000.68	006.140	000.000	090.000	0.9980919	0.0010951	-0.0010951	0.9980922	1.741935e+01	6.375000e-08	-1.213004e+00	1.000000e+00	-4.111951e-06	2.170000e-10	2.700000e-03	1.968697e-12	8.500000e-02	3838	3710	31
13	-0012.09	-0000.26	-05.660	000.000	090.000	0.9982656	0.0009745	-0.0009745	0.9982657	2.516129e+01	6.375000e-08	-1.213004e+00	1.000000e+00	-4.125901e-06	2.170000e-10	2.700000e-03	1.968697e-12	8.500000e-02	3838	3710	31
10	-0006.29	-0000.53	003.190	000.000	090.000	0.9985482	0.0009310	-0.0009310	0.9985482	1.935484e+01	6.375000e-08	-1.213004e+00	1.000000e+00	-4.173364e-06	2.170000e-10	2.700000e-03	1.968697e-12	8.500000e-02	3838	3710	31
12	-0010.33	-0000.81	-02.700	000.000	090.000	0.9989838	0.0015294	-0.0015294	0.9989840	2.322581e+01	6.375000e-08	-1.213004e+00	1.000000e+00	-4.160610e-06	2.170000e-10	2.700000e-03	1.968697e-12	8.500000e-02	3838	3710	31
11	00000.30	00002.05	000.230	000.000	090.000	0.9999984	0.0017396	-0.0017396	0.9999984	2.129032e+01	6.375000e-08	-1.213004e+00	1.000000e+00	-4.155106e-06	2.170000e-10	2.700000e-03	1.968697e-12	8.500000e-02	3838	3710	31
