1	-0003.47	-0000.76	061.500	000.000	090.000	0.9994642	0.0011021	-0.0011021	0.9994642	1.000000e+00	5.625000e-08	-1.326450e+00	1.000000e+00	-3.806858e-06	2.170000e-10	2.700000e-03	1.968697e-12	8.500000e-02	3838	3710	41
41	-0004.17	-0000.36	-58.610	000.000	090.000	1.0011646	0.0013145	-0.0013145	1.0011646	4.536585e+01	5.625000e-08	-1.326450e+00	1.000000e+00	-1.878908e-06	2.170000e-10	2.700000e-03	1.968697e-12	8.500000e-02	3838	3710	41
2	-0004.76	-0000.92	058.480	000.000	090.000	1.0000770	0.0008772	-0.0008772	1.0000770	6.000000e+01	5.625000e-08	-1.326450e+00	1.000000e+00	-3.637479e-06	2.170000e-10	2.700000e-03	1.968697e-12	8.500000e-02	3838	3710	41
40	-0004.01	-0000.18	-55.740	000.000	090.000	1.0009446	0.0007800	-0.0007800	1.0009446	4.390244e+01	5.625000e-08	-1.326450e+00	1.000000e+00	-1.924131e-06	2.170000e-10	2.700000e-03	1.968697e-12	8.500000e-02	3838	3710	41
3	-0003.67	-0000.44	055.450	000.000	090.000	0.9997073	0.0013949	-0.0013949	0.9997073	5.707317e+01	5.625000e-08	-1.326450e+00	1.000000e+00	-3.664167e-06	2.170000e-10	2.700000e-03	1.968697e-12	8.500000e-02	3838	3710	41
39	-0005.18	-0000.21	-52.870	000.000	090.000	1.0010781	0.0009504	-0.0009504	1.0010781	4.243902e+01	5.625000e-08	-1.326450e+00	1.000000e+00	-1.998071e-06	2.170000e-10	2.700000e-03	1.968697e-12	8.500000e-02	3838	3710	41
4	-0002.81	-0001.41	052.420	000.000	090.000	0.9992276	0.0015093	-0.0015093	0.9992277	5.560976e+01	5.625000e-08	-1.326450e+00	1.000000e+00	-3.584082e-06	2.170000e-10	2.700000e-03	1.968697e-12	8.500000e-02	3838	3710	41
38	-0004.46	-0000.29	-50.020	000.000	090.000	1.0003520	0.0012182	-0.0012182	1.0003520	4.097561e+01	5.625000e-08	-1.326450e+00	1.000000e+00	-2.042374e-06	2.170000e-10	2.700000e-03	1.968697e-12	8.500000e-02	3838	3710	41
5	-0004.13	00000.63	049.440	000.000	090.000	0.9997870	0.0008534	-0.0008534	0.9997871	5.414634e+01	5.625000e-08	-1.326450e+00	1.000000e+00	-3.590847e-06	2.170000e-10	2.700000e-03	1.968697e-12	8.500000e-02	3838	3710	41
37	-0004.32	-0000.47	-47.090	000.000	090.000	1.0007828	0.0010645	-0.0010645	1.0007828	3.951220e+01	5.625000e-08	-1.326450e+00	1.000000e+00	-2.128058e-06	2.170000e-10	2.700000e-03	1.968697e-12	8.500000e-02	3838	3710	41
6	-0003.28	00000.32	046.480	000.000	090.000	0.9993017	0.0010639	-0.0010639	0.9993017	5.268293e+01	5.625000e-08	-1.326450e+00	1.000000e+00	-3.538686e-06	2.170000e-10	2.700000e-03	1.968697e-12	8.500000e-02	3838	3710	41
36	-0003.68	-0000.17	-44.180	000.000	090.000	1.0008158	0.0013556	-0.0013556	1.0008158	3.804878e+01	5.625000e-08	-1.326450e+00	1.000000e+00	-2.216344e-06	2.170000e-10	2.700000e-03	1.968697e-12	8.500000e-02	3838	3710	41
7	-0001.82	-0000.23	043.500	000.000	090.000	0.9987192	0.0008387	-0.0008387	0.9987192	5.121951e+01	5.625000e-08	-1.326450e+00	1.000000e+00	-3.414276e-06	2.170000e-10	2.700000e-03	1.968697e-12	8.500000e-02	3838	3710	41
35	-0004.63	-0000.31	-41.260	000.000	090.000	1.0007800	0.0014452	-0.0014452	1.0007800	3.658537e+01	5.625000e-08	-1.326450e+00	1.000000e+00	-2.329313e-06	2.170000e-10	2.700000e-03	1.968697e-12	8.500000e-02	3838	3710	41
8	-0001.87	-0000.09	040.550	000.000	090.000	0.9988392	0.0009945	-0.0009945	0.9988392	4.975610e+01	5.625000e-08	-1.326450e+00	1.000000e+00	-3.501122e-06	2.170000e-10	2.700000e-03	1.968697e-12	8.500000e-02	3838	3710	41
34	-0003.79	00000.06	-38.340	000.000	090.000	1.0005215	0.0011489	-0.0011489	1.0005215	3.512195e+01	5.625000e-08	-1.326450e+00	1.000000e+00	-2.389698e-06	2.170000e-10	2.700000e-03	1.968697e-12	8.500000e-02	3838	3710	41
9	-0003.52	-0000.69	037.120	000.000	090.000	0.9997872	0.0008602	-0.0008602	0.9997872	4.829268e+01	5.625000e-08	-1.326450e+00	1.000000e+00	-3.385972e-06	2.170000e-10	2.700000e-03	1.968697e-12	8.500000e-02	3838	3710	41
33	-0002.70	-0000.92	-35.360	000.000	090.000	1.0009126	0.0010167	-0.0010167	1.0009126	3.365854e+01	5.625000e-08	-1.326450e+00	1.000000e+00	-2.515109e-06	2.170000e-10	2.700000e-03	1.968697e-12	8.500000e-02	3838	3710	41
10	-0002.99	-0000.51	033.660	000.000	090.000	1.0011746	0.0004908	-0.0004908	1.0011746	4.682927e+01	5.625000e-08	-1.326450e+00	1.000000e+00	-3.501003e-06	2.170000e-10	2.700000e-03	1.968697e-12	8.500000e-02	3838	3710	41
32	-0003.19	00000.18	-32.440	000.000	090.000	1.0006240	0.0019399	-0.0019399	1.0006240	3.219512e+01	5.625000e-08	-1.326450e+00	1.000000e+00	-2.692517e-06	2.170000e-10	2.700000e-03	1.968697e-12	8.500000e-02	3838	3710	41
11	00000.45	-0000.06	030.230	000.000	090.000	0.9987325	-0.0008712	0.0008712	0.9987326	1.463415e+00	5.625000e-08	-1.326450e+00	1.000000e+00	-3.372722e-06	2.170000e-10	2.700000e-03	1.968697e-12	8.500000e-02	3838	3710	41
31	-0002.38	00000.01	-29.520	000.000	090.000	1.0001707	0.0018856	-0.0018856	1.0001707	3.073171e+01	5.625000e-08	-1.326450e+00	1.000000e+00	-2.792062e-06	2.170000e-10	2.700000e-03	1.968697e-12	8.500000e-02	3838	3710	41
12	-0000.49	00001.27	026.780	000.000	090.000	0.9990548	0.0009909	-0.0009909	0.9990548	2.926829e+00	5.625000e-08	-1.326450e+00	1.000000e+00	-3.212385e-06	2.170000e-10	2.700000e-03	1.968697e-12	8.500000e-02	3838	3710	41
30	00001.64	-0000.75	-26.580	000.000	090.000	1.0007279	0.0008357	-0.0008357	1.0007279	2.926829e+01	5.625000e-08	-1.326450e+00	1.000000e+00	-2.834686e-06	2.170000e-10	2.700000e-03	1.968697e-12	8.500000e-02	3838	3710	41
29	-0002.34	00000.79	-23.680	000.000	090.000	1.0000544	0.0019193	-0.0019193	1.0000544	2.780488e+01	5.625000e-08	-1.326450e+00	1.000000e+00	-2.939669e-06	2.170000e-10	2.700000e-03	1.968697e-12	8.500000e-02	3838	3710	41
13	-0000.92	00000.15	023.290	000.000	090.000	0.9992923	0.0019561	-0.0019561	0.9992923	4.390244e+00	5.625000e-08	-1.326450e+00	1.000000e+00	-3.212747e-06	2.170000e-10	2.700000e-03	1.968697e-12	8.500000e-02	3838	3710	41
28	-0002.74	00001.07	-20.710	000.000	090.000	0.9995399	0.0021911	-0.0021911	0.9995399	2.634146e+01	5.625000e-08	-1.326450e+00	1.000000e+00	-2.993899e-06	2.170000e-10	2.700000e-03	1.968697e-12	8.500000e-02	3838	3710	41
14	00000.03	-0000.44	020.430	000.000	090.000	1.0000642	0.0014034	-0.0014034	1.0000642	5.853659e+00	5.625000e-08	-1.326450e+00	1.000000e+00	-3.191736e-06	2.170000e-10	2.700000e-03	1.968697e-12	8.500000e-02	3838	3710	41
27	-0001.68	00000.71	-17.700	000.000	090.000	0.9998588	0.0015125	-0.0015125	0.9998588	2.487805e+01	5.625000e-08	-1.326450e+00	1.000000e+00	-3.033599e-06	2.170000e-10	2.700000e-03	1.968697e-12	8.500000e-02	3838	3710	41
15	00000.52	00000.75	017.560	000.000	090.000	0.9996560	0.0022809	-0.0022809	0.9996560	7.317073e+00	5.625000e-08	-1.326450e+00	1.000000e+00	-3.149834e-06	2.170000e-10	2.700000e-03	1.968697e-12	8.500000e-02	3838	3710	41
16	00000.20	00000.41	014.710	000.000	090.000	1.0002068	0.0014058	-0.0014058	1.0002068	8.780488e+00	5.625000e-08	-1.326450e+00	1.000000e+00	-3.140626e-06	2.170000e-10	2.700000e-03	1.968697e-12	8.500000e-02	3838	3710	41
26	-0001.44	00000.31	-14.670	000.000	090.000	1.0002449	0.0016186	-0.0016186	1.0002449	2.341463e+01	5.625000e-08	-1.326450e+00	1.000000e+00	-3.035706e-06	2.170000e-10	2.700000e-03	1.968697e-12	8.500000e-02	3838	3710	41
17	00001.12	00000.29	011.870	000.000	090.000	1.0002078	0.0018551	-0.0018551	1.0002078	1.024390e+01	5.625000e-08	-1.326450e+00	1.000000e+00	-3.057941e-06	2.170000e-10	2.700000e-03	1.968697e-12	8.500000e-02	3838	3710	41
25	-0000.27	00000.41	-11.660	000.000	090.000	0.9998182	0.0020698	-0.0020698	0.9998182	2.195122e+01	5.625000e-08	-1.326450e+00	1.000000e+00	-3.021873e-06	2.170000e-10	2.700000e-03	1.968697e-12	8.500000e-02	3838	3710	41
18	-0001.17	00000.92	009.040	000.000	090.000	1.0005919	0.0017631	-0.0017631	1.0005919	1.170732e+01	5.625000e-08	-1.326450e+00	1.000000e+00	-2.956134e-06	2.170000e-10	2.700000e-03	1.968697e-12	8.500000e-02	3838	3710	41
24	-0000.25	-0000.12	-08.630	000.000	090.000	1.0001178	0.0014980	-0.0014980	1.0001178	2.048780e+01	5.625000e-08	-1.326450e+00	1.000000e+00	-3.049251e-06	2.170000e-10	2.700000e-03	1.968697e-12	8.500000e-02	3838	3710	41
19	-0000.19	00000.66	006.120	000.000	090.000	1.0007382	0.0018203	-0.0018203	1.0007382	1.317073e+01	5.625000e-08	-1.326450e+00	1.000000e+00	-3.229804e-06	2.170000e-10	2.700000e-03	1.968697e-12	8.500000e-02	3838	3710	41
23	-0000.78	00000.31	-05.660	000.000	090.000	1.0001228	0.0016699	-0.0016699	1.0001228	1.902439e+01	5.625000e-08	-1.326450e+00	1.000000e+00	-3.085050e-06	2.170000e-10	2.700000e-03	1.968697e-12	8.500000e-02	3838	3710	41
20	-0000.99	00000.65	003.190	000.000	090.000	0.9995817	0.0013584	-0.0013584	0.9995817	1.463415e+01	5.625000e-08	-1.326450e+00	1.000000e+00	-3.127000e-06	2.170000e-10	2.700000e-03	1.968697e-12	8.500000e-02	3838	3710	41
22	00002.75	-0001.07	-02.700	000.000	090.000	1.0003789	0.0015353	-0.0015353	1.0003789	1.756098e+01	5.625000e-08	-1.326450e+00	1.000000e+00	-3.141687e-06	2.170000e-10	2.700000e-03	1.968697e-12	8.500000e-02	3838	3710	41
21	-0000.20	00000.42	000.260	000.000	090.000	0.9999988	0.0015390	-0.0015390	0.9999988	1.609756e+01	5.625000e-08	-1.326450e+00	1.000000e+00	-3.110815e-06	2.170000e-10	2.700000e-03	1.968697e-12	8.500000e-02	3838	3710	41
