41	00001.01	-0011.12	-60.450	000.000	090.000	1.0156990	-0.0144186	0.0144186	1.0156990	4.536585e+01	4.125000e-08	-1.055924e+00	1.000000e+00	-2.912984e-06	2.170000e-10	2.700000e-03	1.968697e-12	8.500000e-02	3838	3710	41
1	00001.70	00012.87	059.300	000.000	090.000	0.9916872	-0.0150265	0.0150265	0.9916873	6.000000e+01	4.125000e-08	-1.055924e+00	1.000000e+00	-3.909596e-06	2.170000e-10	2.700000e-03	1.968697e-12	8.500000e-02	3838	3710	41
40	00001.58	-0015.78	-57.340	000.000	090.000	1.0174314	-0.0130496	0.0130496	1.0174315	4.390244e+01	4.125000e-08	-1.055924e+00	1.000000e+00	-3.058363e-06	2.170000e-10	2.700000e-03	1.968697e-12	8.500000e-02	3838	3710	41
2	00003.48	00012.98	056.190	000.000	090.000	0.9908264	-0.0158433	0.0158433	0.9908264	5.853659e+01	4.125000e-08	-1.055924e+00	1.000000e+00	-3.862517e-06	2.170000e-10	2.700000e-03	1.968697e-12	8.500000e-02	3838	3710	41
39	-0006.16	-0016.59	-54.230	000.000	090.000	1.0191097	-0.0042232	0.0042232	1.0191097	4.243902e+01	4.125000e-08	-1.055924e+00	1.000000e+00	-2.855245e-06	2.170000e-10	2.700000e-03	1.968697e-12	8.500000e-02	3838	3710	41
3	-0001.89	00012.29	053.070	000.000	090.000	0.9916746	-0.0102153	0.0102153	0.9916746	5.707317e+01	4.125000e-08	-1.055924e+00	1.000000e+00	-3.843358e-06	2.170000e-10	2.700000e-03	1.968697e-12	8.500000e-02	3838	3710	41
38	-0008.61	-0017.49	-51.110	000.000	090.000	1.0218535	-0.0055831	0.0055831	1.0218535	4.097561e+01	4.125000e-08	-1.055924e+00	1.000000e+00	-3.004299e-06	2.170000e-10	2.700000e-03	1.968697e-12	8.500000e-02	3838	3710	41
4	00002.45	00010.83	049.960	000.000	090.000	0.9963459	-0.0157208	0.0157208	0.9963459	5.560976e+01	4.125000e-08	-1.055924e+00	1.000000e+00	-3.953948e-06	2.170000e-10	2.700000e-03	1.968697e-12	8.500000e-02	3838	3710	41
37	-0002.87	-0008.98	-48.180	000.000	090.000	1.0135305	-0.0074494	0.0074494	1.0135305	3.951220e+01	4.125000e-08	-1.055924e+00	1.000000e+00	-3.297549e-06	2.170000e-10	2.700000e-03	1.968697e-12	8.500000e-02	3838	3710	41
5	-0007.19	00005.91	046.860	000.000	090.000	0.9980381	-0.0053274	0.0053274	0.9980381	5.414634e+01	4.125000e-08	-1.055924e+00	1.000000e+00	-3.909388e-06	2.170000e-10	2.700000e-03	1.968697e-12	8.500000e-02	3838	3710	41
36	-0000.36	-0012.38	-45.260	000.000	090.000	1.0125517	-0.0107929	0.0107929	1.0125517	3.804878e+01	4.125000e-08	-1.055924e+00	1.000000e+00	-3.257577e-06	2.170000e-10	2.700000e-03	1.968697e-12	8.500000e-02	3838	3710	41
6	00000.13	00008.23	043.730	000.000	090.000	0.9984918	-0.0101172	0.0101172	0.9984919	5.268293e+01	4.125000e-08	-1.055924e+00	1.000000e+00	-3.905125e-06	2.170000e-10	2.700000e-03	1.968697e-12	8.500000e-02	3838	3710	41
35	-0002.73	-0010.80	-42.340	000.000	090.000	1.0120216	-0.0085469	0.0085469	1.0120216	3.658537e+01	4.125000e-08	-1.055924e+00	1.000000e+00	-3.486515e-06	2.170000e-10	2.700000e-03	1.968697e-12	8.500000e-02	3838	3710	41
7	-0007.01	00004.50	040.620	000.000	090.000	0.9975352	-0.0066510	0.0066510	0.9975352	5.121951e+01	4.125000e-08	-1.055924e+00	1.000000e+00	-3.935299e-06	2.170000e-10	2.700000e-03	1.968697e-12	8.500000e-02	3838	3710	41
34	-0004.80	-0004.94	-39.410	000.000	090.000	1.0082307	-0.0052673	0.0052673	1.0082307	3.512195e+01	4.125000e-08	-1.055924e+00	1.000000e+00	-3.593790e-06	2.170000e-10	2.700000e-03	1.968697e-12	8.500000e-02	3838	3710	41
8	-0003.13	00007.70	037.510	000.000	090.000	0.9987028	-0.0083719	0.0083719	0.9987028	4.975610e+01	4.125000e-08	-1.055924e+00	1.000000e+00	-3.878093e-06	2.170000e-10	2.700000e-03	1.968697e-12	8.500000e-02	3838	3710	41
33	-0000.14	-0005.29	-36.240	000.000	090.000	1.0083519	-0.0075202	0.0075202	1.0083519	3.365854e+01	4.125000e-08	-1.055924e+00	1.000000e+00	-3.370198e-06	2.170000e-10	2.700000e-03	1.968697e-12	8.500000e-02	3838	3710	41
9	-0003.59	00006.92	034.770	000.000	090.000	0.9987947	-0.0085774	0.0085774	0.9987947	4.829268e+01	4.125000e-08	-1.055924e+00	1.000000e+00	-3.947995e-06	2.170000e-10	2.700000e-03	1.968697e-12	8.500000e-02	3838	3710	41
32	-0003.94	-0004.93	-33.050	000.000	090.000	1.0084663	-0.0059828	0.0059828	1.0084664	3.219512e+01	4.125000e-08	-1.055924e+00	1.000000e+00	-3.550338e-06	2.170000e-10	2.700000e-03	1.968697e-12	8.500000e-02	3838	3710	41
10	-0004.56	00008.67	032.000	000.000	090.000	0.9979027	-0.0091502	0.0091502	0.9979027	4.682927e+01	4.125000e-08	-1.055924e+00	1.000000e+00	-3.996152e-06	2.170000e-10	2.700000e-03	1.968697e-12	8.500000e-02	3838	3710	41
31	-0003.09	-0011.25	-29.900	000.000	090.000	1.0119744	-0.0046388	0.0046388	1.0119745	3.073171e+01	4.125000e-08	-1.055924e+00	1.000000e+00	-3.702020e-06	2.170000e-10	2.700000e-03	1.968697e-12	8.500000e-02	3838	3710	41
11	-0001.83	00005.75	029.260	000.000	090.000	0.9997518	-0.0057284	0.0057284	0.9997519	1.463415e+00	4.125000e-08	-1.055924e+00	1.000000e+00	-3.939649e-06	2.170000e-10	2.700000e-03	1.968697e-12	8.500000e-02	3838	3710	41
30	-0005.65	-0005.00	-26.750	000.000	090.000	1.0058979	-0.0019419	0.0019419	1.0058981	2.926829e+01	4.125000e-08	-1.055924e+00	1.000000e+00	-3.517535e-06	2.170000e-10	2.700000e-03	1.968697e-12	8.500000e-02	3838	3710	41
12	-0006.92	00003.41	026.510	000.000	090.000	1.0003120	-0.0036790	0.0036790	1.0003121	2.926829e+00	4.125000e-08	-1.055924e+00	1.000000e+00	-3.763257e-06	2.170000e-10	2.700000e-03	1.968697e-12	8.500000e-02	3838	3710	41
13	-0002.85	00002.94	023.770	000.000	090.000	1.0007841	-0.0058898	0.0058898	1.0007841	4.390244e+00	4.125000e-08	-1.055924e+00	1.000000e+00	-3.840489e-06	2.170000e-10	2.700000e-03	1.968697e-12	8.500000e-02	3838	3710	41
29	-0001.58	-0008.93	-23.580	000.000	090.000	1.0108998	-0.0063607	0.0063607	1.0108998	2.780488e+01	4.125000e-08	-1.055924e+00	1.000000e+00	-3.539471e-06	2.170000e-10	2.700000e-03	1.968697e-12	8.500000e-02	3838	3710	41
14	-0002.66	00001.89	020.770	000.000	090.000	1.0014339	-0.0072337	0.0072337	1.0014339	5.853659e+00	4.125000e-08	-1.055924e+00	1.000000e+00	-3.806916e-06	2.170000e-10	2.700000e-03	1.968697e-12	8.500000e-02	3838	3710	41
28	00000.83	-0004.09	-20.700	000.000	090.000	1.0078858	-0.0060396	0.0060396	1.0078859	2.634146e+01	4.125000e-08	-1.055924e+00	1.000000e+00	-3.782687e-06	2.170000e-10	2.700000e-03	1.968697e-12	8.500000e-02	3838	3710	41
15	-0003.25	00007.22	017.800	000.000	090.000	0.9999145	-0.0069426	0.0069426	0.9999146	7.317073e+00	4.125000e-08	-1.055924e+00	1.000000e+00	-3.799398e-06	2.170000e-10	2.700000e-03	1.968697e-12	8.500000e-02	3838	3710	41
27	-0002.91	-0003.18	-17.750	000.000	090.000	1.0078498	-0.0043387	0.0043387	1.0078498	2.487805e+01	4.125000e-08	-1.055924e+00	1.000000e+00	-3.828241e-06	2.170000e-10	2.700000e-03	1.968697e-12	8.500000e-02	3838	3710	41
16	00000.08	00002.38	014.940	000.000	090.000	1.0011774	-0.0067300	0.0067300	1.0011773	8.780488e+00	4.125000e-08	-1.055924e+00	1.000000e+00	-3.817993e-06	2.170000e-10	2.700000e-03	1.968697e-12	8.500000e-02	3838	3710	41
26	-0001.76	-0001.36	-14.800	000.000	090.000	1.0060344	-0.0060833	0.0060833	1.0060344	2.341463e+01	4.125000e-08	-1.055924e+00	1.000000e+00	-3.753662e-06	2.170000e-10	2.700000e-03	1.968697e-12	8.500000e-02	3838	3710	41
17	-0000.17	00003.07	012.080	000.000	090.000	1.0000565	-0.0072268	0.0072268	1.0000565	1.024390e+01	4.125000e-08	-1.055924e+00	1.000000e+00	-3.827306e-06	2.170000e-10	2.700000e-03	1.968697e-12	8.500000e-02	3838	3710	41
25	-0003.17	-0001.31	-11.830	000.000	090.000	1.0056609	-0.0054107	0.0054107	1.0056609	2.195122e+01	4.125000e-08	-1.055924e+00	1.000000e+00	-3.867705e-06	2.170000e-10	2.700000e-03	1.968697e-12	8.500000e-02	3838	3710	41
18	00000.89	00005.85	009.220	000.000	090.000	0.9997382	-0.0079035	0.0079035	0.9997382	1.170732e+01	4.125000e-08	-1.055924e+00	1.000000e+00	-3.820580e-06	2.170000e-10	2.700000e-03	1.968697e-12	8.500000e-02	3838	3710	41
24	-0004.62	-0001.35	-08.870	000.000	090.000	1.0045148	-0.0050722	0.0050722	1.0045148	2.048780e+01	4.125000e-08	-1.055924e+00	1.000000e+00	-3.744514e-06	2.170000e-10	2.700000e-03	1.968697e-12	8.500000e-02	3838	3710	41
19	00000.07	00004.47	006.170	000.000	090.000	0.9999182	-0.0069901	0.0069901	0.9999183	1.317073e+01	4.125000e-08	-1.055924e+00	1.000000e+00	-3.817945e-06	2.170000e-10	2.700000e-03	1.968697e-12	8.500000e-02	3838	3710	41
23	00000.59	00002.36	-05.690	000.000	090.000	1.0032679	-0.0068371	0.0068371	1.0032679	1.902439e+01	4.125000e-08	-1.055924e+00	1.000000e+00	-3.781411e-06	2.170000e-10	2.700000e-03	1.968697e-12	8.500000e-02	3838	3710	41
20	-0003.95	00007.15	003.110	000.000	090.000	0.9993049	-0.0064967	0.0064967	0.9993049	1.463415e+01	4.125000e-08	-1.055924e+00	1.000000e+00	-3.859089e-06	2.170000e-10	2.700000e-03	1.968697e-12	8.500000e-02	3838	3710	41
22	00006.05	00002.73	-02.500	000.000	090.000	1.0034253	-0.0098316	0.0098316	1.0034254	1.756098e+01	4.125000e-08	-1.055924e+00	1.000000e+00	-3.781549e-06	2.170000e-10	2.700000e-03	1.968697e-12	8.500000e-02	3838	3710	41
21	00000.10	00003.45	000.100	000.000	090.000	0.9999784	-0.0065722	0.0065722	0.9999784	1.609756e+01	4.125000e-08	-1.055924e+00	1.000000e+00	-3.761001e-06	2.170000e-10	2.700000e-03	1.968697e-12	8.500000e-02	3838	3710	41
