41	-0015.11	-0000.84	-61.260	000.000	090.000	0.9965405	0.0017020	-0.0017020	0.9965405	4.536585e+01	3.000000e-08	-1.213004e+00	1.000000e+00	-2.439176e-06	2.170000e-10	2.700000e-03	1.968697e-12	8.500000e-02	3838	3710	41
1	00001.11	-0001.48	058.690	000.000	090.000	0.9999933	-0.0003254	0.0003254	0.9999933	6.000000e+01	3.000000e-08	-1.213004e+00	1.000000e+00	-4.310254e-06	2.170000e-10	2.700000e-03	1.968697e-12	8.500000e-02	3838	3710	41
40	-0012.76	00000.54	-58.270	000.000	090.000	0.9962622	0.0000251	-0.0000251	0.9962625	4.390244e+01	3.000000e-08	-1.213004e+00	1.000000e+00	-2.793133e-06	2.170000e-10	2.700000e-03	1.968697e-12	8.500000e-02	3838	3710	41
2	00001.64	-0001.03	055.680	000.000	090.000	0.9994968	-0.0008754	0.0008754	0.9994969	5.853659e+01	3.000000e-08	-1.213004e+00	1.000000e+00	-4.125979e-06	2.170000e-10	2.700000e-03	1.968697e-12	8.500000e-02	3838	3710	41
39	-0011.24	-0000.30	-55.250	000.000	090.000	0.9973096	0.0019509	-0.0019509	0.9973096	4.243902e+01	3.000000e-08	-1.213004e+00	1.000000e+00	-2.997070e-06	2.170000e-10	2.700000e-03	1.968697e-12	8.500000e-02	3838	3710	41
3	00001.21	-0001.61	052.670	000.000	090.000	0.9992240	0.0003866	-0.0003866	0.9992240	5.707317e+01	3.000000e-08	-1.213004e+00	1.000000e+00	-4.170262e-06	2.170000e-10	2.700000e-03	1.968697e-12	8.500000e-02	3838	3710	41
38	-0011.25	-0000.47	-52.260	000.000	090.000	0.9969415	0.0013489	-0.0013489	0.9969415	4.097561e+01	3.000000e-08	-1.213004e+00	1.000000e+00	-3.266403e-06	2.170000e-10	2.700000e-03	1.968697e-12	8.500000e-02	3838	3710	41
4	00002.07	-0000.97	049.660	000.000	090.000	0.9991480	0.0000067	-0.0000067	0.9991480	5.560976e+01	3.000000e-08	-1.213004e+00	1.000000e+00	-4.121142e-06	2.170000e-10	2.700000e-03	1.968697e-12	8.500000e-02	3838	3710	41
37	-0009.94	-0000.26	-49.230	000.000	090.000	0.9981083	0.0006930	-0.0006930	0.9981083	3.951220e+01	3.000000e-08	-1.213004e+00	1.000000e+00	-3.221912e-06	2.170000e-10	2.700000e-03	1.968697e-12	8.500000e-02	3838	3710	41
5	00001.10	00000.35	046.660	000.000	090.000	0.9985254	-0.0000808	0.0000808	0.9985254	5.414634e+01	3.000000e-08	-1.213004e+00	1.000000e+00	-3.930941e-06	2.170000e-10	2.700000e-03	1.968697e-12	8.500000e-02	3838	3710	41
36	-0009.10	00000.17	-46.210	000.000	090.000	0.9979671	0.0014031	-0.0014031	0.9979671	3.804878e+01	3.000000e-08	-1.213004e+00	1.000000e+00	-2.594489e-06	2.170000e-10	2.700000e-03	1.968697e-12	8.500000e-02	3838	3710	41
6	00001.36	-0000.32	043.640	000.000	090.000	0.9985517	-0.0003555	0.0003555	0.9985517	5.268293e+01	3.000000e-08	-1.213004e+00	1.000000e+00	-3.992074e-06	2.170000e-10	2.700000e-03	1.968697e-12	8.500000e-02	3838	3710	41
35	-0009.13	00000.78	-43.200	000.000	090.000	0.9983431	0.0018520	-0.0018520	0.9983431	3.658537e+01	3.000000e-08	-1.213004e+00	1.000000e+00	-2.755587e-06	2.170000e-10	2.700000e-03	1.968697e-12	8.500000e-02	3838	3710	41
7	00002.78	-0000.31	040.620	000.000	090.000	0.9985264	0.0009130	-0.0009130	0.9985264	5.121951e+01	3.000000e-08	-1.213004e+00	1.000000e+00	-4.181902e-06	2.170000e-10	2.700000e-03	1.968697e-12	8.500000e-02	3838	3710	41
34	-0008.60	00000.30	-40.230	000.000	090.000	0.9986380	0.0012211	-0.0012211	0.9986380	3.512195e+01	3.000000e-08	-1.213004e+00	1.000000e+00	-2.912989e-06	2.170000e-10	2.700000e-03	1.968697e-12	8.500000e-02	3838	3710	41
8	00002.88	-0000.69	037.610	000.000	090.000	0.9978197	0.0005452	-0.0005452	0.9978198	4.975610e+01	3.000000e-08	-1.213004e+00	1.000000e+00	-4.021293e-06	2.170000e-10	2.700000e-03	1.968697e-12	8.500000e-02	3838	3710	41
33	-0007.45	00001.06	-37.210	000.000	090.000	0.9988530	0.0010327	-0.0010327	0.9988530	3.365854e+01	3.000000e-08	-1.213004e+00	1.000000e+00	-2.966577e-06	2.170000e-10	2.700000e-03	1.968697e-12	8.500000e-02	3838	3710	41
9	00002.33	-0000.47	034.690	000.000	090.000	0.9978966	0.0009265	-0.0009265	0.9978966	4.829268e+01	3.000000e-08	-1.213004e+00	1.000000e+00	-3.698355e-06	2.170000e-10	2.700000e-03	1.968697e-12	8.500000e-02	3838	3710	41
32	-0006.69	00001.02	-34.200	000.000	090.000	0.9981612	0.0016564	-0.0016564	0.9981613	3.219512e+01	3.000000e-08	-1.213004e+00	1.000000e+00	-3.014854e-06	2.170000e-10	2.700000e-03	1.968697e-12	8.500000e-02	3838	3710	41
10	00002.52	-0000.13	031.850	000.000	090.000	0.9976247	0.0004697	-0.0004697	0.9976247	4.682927e+01	3.000000e-08	-1.213004e+00	1.000000e+00	-3.634533e-06	2.170000e-10	2.700000e-03	1.968697e-12	8.500000e-02	3838	3710	41
31	-0006.54	00001.15	-31.200	000.000	090.000	0.9985707	0.0010030	-0.0010030	0.9985707	3.073171e+01	3.000000e-08	-1.213004e+00	1.000000e+00	-3.048534e-06	2.170000e-10	2.700000e-03	1.968697e-12	8.500000e-02	3838	3710	41
11	00002.44	-0000.06	029.010	000.000	090.000	0.9972367	0.0033994	-0.0033994	0.9972367	1.463415e+00	3.000000e-08	-1.213004e+00	1.000000e+00	-3.611453e-06	2.170000e-10	2.700000e-03	1.968697e-12	8.500000e-02	3838	3710	41
30	-0000.56	00001.25	-28.210	000.000	090.000	1.0004622	0.0008342	-0.0008342	1.0004622	2.926829e+01	3.000000e-08	-1.213004e+00	1.000000e+00	-3.112568e-06	2.170000e-10	2.700000e-03	1.968697e-12	8.500000e-02	3838	3710	41
12	00003.09	-0000.31	026.190	000.000	090.000	0.9976010	0.0025503	-0.0025503	0.9976010	2.926829e+00	3.000000e-08	-1.213004e+00	1.000000e+00	-3.422071e-06	2.170000e-10	2.700000e-03	1.968697e-12	8.500000e-02	3838	3710	41
29	-0004.61	00000.74	-25.190	000.000	090.000	0.9987997	0.0006626	-0.0006626	0.9987998	2.780488e+01	3.000000e-08	-1.213004e+00	1.000000e+00	-3.214713e-06	2.170000e-10	2.700000e-03	1.968697e-12	8.500000e-02	3838	3710	41
13	00001.23	00000.20	023.350	000.000	090.000	0.9976183	0.0022343	-0.0022343	0.9976183	4.390244e+00	3.000000e-08	-1.213004e+00	1.000000e+00	-3.452438e-06	2.170000e-10	2.700000e-03	1.968697e-12	8.500000e-02	3838	3710	41
28	-0004.14	00000.76	-22.150	000.000	090.000	0.9986179	0.0007899	-0.0007899	0.9986179	2.634146e+01	3.000000e-08	-1.213004e+00	1.000000e+00	-3.266583e-06	2.170000e-10	2.700000e-03	1.968697e-12	8.500000e-02	3838	3710	41
14	00002.53	00001.09	020.540	000.000	090.000	0.9982421	0.0016407	-0.0016407	0.9982421	5.853659e+00	3.000000e-08	-1.213004e+00	1.000000e+00	-3.526485e-06	2.170000e-10	2.700000e-03	1.968697e-12	8.500000e-02	3838	3710	41
27	-0003.52	00000.40	-19.120	000.000	090.000	0.9994496	0.0008480	-0.0008480	0.9994496	2.487805e+01	3.000000e-08	-1.213004e+00	1.000000e+00	-3.302771e-06	2.170000e-10	2.700000e-03	1.968697e-12	8.500000e-02	3838	3710	41
15	00001.25	00000.11	017.740	000.000	090.000	0.9976397	0.0023490	-0.0023490	0.9976398	7.317073e+00	3.000000e-08	-1.213004e+00	1.000000e+00	-3.538248e-06	2.170000e-10	2.700000e-03	1.968697e-12	8.500000e-02	3838	3710	41
26	-0002.78	-0000.29	-16.090	000.000	090.000	0.9993499	0.0010855	-0.0010855	0.9993499	2.341463e+01	3.000000e-08	-1.213004e+00	1.000000e+00	-3.398448e-06	2.170000e-10	2.700000e-03	1.968697e-12	8.500000e-02	3838	3710	41
16	00000.77	-0000.01	014.610	000.000	090.000	0.9988160	0.0021960	-0.0021960	0.9988160	8.780488e+00	3.000000e-08	-1.213004e+00	1.000000e+00	-3.503873e-06	2.170000e-10	2.700000e-03	1.968697e-12	8.500000e-02	3838	3710	41
25	-0001.79	00000.40	-13.070	000.000	090.000	0.9996835	0.0011645	-0.0011645	0.9996836	2.195122e+01	3.000000e-08	-1.213004e+00	1.000000e+00	-3.433945e-06	2.170000e-10	2.700000e-03	1.968697e-12	8.500000e-02	3838	3710	41
17	00000.99	-0000.16	011.490	000.000	090.000	1.0001881	0.0019247	-0.0019247	1.0001881	1.024390e+01	3.000000e-08	-1.213004e+00	1.000000e+00	-3.430015e-06	2.170000e-10	2.700000e-03	1.968697e-12	8.500000e-02	3838	3710	41
24	-0001.19	00000.02	-10.030	000.000	090.000	0.9995968	0.0007900	-0.0007900	0.9995968	2.048780e+01	3.000000e-08	-1.213004e+00	1.000000e+00	-3.484829e-06	2.170000e-10	2.700000e-03	1.968697e-12	8.500000e-02	3838	3710	41
18	00000.59	-0000.03	008.370	000.000	090.000	1.0005688	0.0017323	-0.0017323	1.0005688	1.170732e+01	3.000000e-08	-1.213004e+00	1.000000e+00	-3.446839e-06	2.170000e-10	2.700000e-03	1.968697e-12	8.500000e-02	3838	3710	41
23	-0001.50	00000.93	-07.110	000.000	090.000	0.9994216	0.0009320	-0.0009320	0.9994216	1.902439e+01	3.000000e-08	-1.213004e+00	1.000000e+00	-3.597541e-06	2.170000e-10	2.700000e-03	1.968697e-12	8.500000e-02	3838	3710	41
19	00000.00	-0000.38	005.230	000.000	090.000	1.0009986	0.0016987	-0.0016987	1.0009987	1.317073e+01	3.000000e-08	-1.213004e+00	1.000000e+00	-3.488222e-06	2.170000e-10	2.700000e-03	1.968697e-12	8.500000e-02	3838	3710	41
22	00001.07	-0000.48	-04.210	000.000	090.000	0.9991970	0.0014187	-0.0014187	0.9991970	1.756098e+01	3.000000e-08	-1.213004e+00	1.000000e+00	-3.293962e-06	2.170000e-10	2.700000e-03	1.968697e-12	8.500000e-02	3838	3710	41
20	00000.43	-0000.70	002.070	000.000	090.000	1.0009581	0.0006935	-0.0006935	1.0009581	1.463415e+01	3.000000e-08	-1.213004e+00	1.000000e+00	-3.502631e-06	2.170000e-10	2.700000e-03	1.968697e-12	8.500000e-02	3838	3710	41
21	00001.04	00000.06	-01.080	000.000	090.000	0.9999994	0.0010973	-0.0010973	0.9999994	1.609756e+01	3.000000e-08	-1.213004e+00	1.000000e+00	-3.564008e-06	2.170000e-10	2.700000e-03	1.968697e-12	8.500000e-02	3838	3710	41
