1	-0006.78	-0001.20	060.460	000.000	090.000	0.9990338	0.0017016	-0.0017016	0.9990339	6.000000e+01	3.000000e-08	-1.204277e+00	1.000000e+00	-5.040734e-06	2.170000e-10	2.700000e-03	1.968697e-12	8.500000e-02	3838	3710	41
41	-0005.68	00000.25	-59.740	000.000	090.000	1.0006082	-0.0002987	0.0002987	1.0006082	4.536585e+01	3.000000e-08	-1.204277e+00	1.000000e+00	-3.820157e-06	2.170000e-10	2.700000e-03	1.968697e-12	8.500000e-02	3838	3710	41
2	-0006.28	-0000.34	057.420	000.000	090.000	0.9995837	0.0011466	-0.0011466	0.9995839	5.853659e+01	3.000000e-08	-1.204277e+00	1.000000e+00	-4.953704e-06	2.170000e-10	2.700000e-03	1.968697e-12	8.500000e-02	3838	3710	41
40	-0005.06	-0000.04	-56.810	000.000	090.000	0.9994968	0.0005227	-0.0005227	0.9994970	4.390244e+01	3.000000e-08	-1.204277e+00	1.000000e+00	-3.858239e-06	2.170000e-10	2.700000e-03	1.968697e-12	8.500000e-02	3838	3710	41
3	-0006.24	-0000.93	054.370	000.000	090.000	0.9994178	0.0012683	-0.0012683	0.9994178	5.707317e+01	3.000000e-08	-1.204277e+00	1.000000e+00	-4.928796e-06	2.170000e-10	2.700000e-03	1.968697e-12	8.500000e-02	3838	3710	41
39	-0004.40	00001.12	-53.900	000.000	090.000	0.9988708	-0.0002697	0.0002697	0.9988708	4.243902e+01	3.000000e-08	-1.204277e+00	1.000000e+00	-3.945950e-06	2.170000e-10	2.700000e-03	1.968697e-12	8.500000e-02	3838	3710	41
4	-0005.03	-0000.50	051.310	000.000	090.000	0.9994642	0.0020078	-0.0020078	0.9994644	5.560976e+01	3.000000e-08	-1.204277e+00	1.000000e+00	-4.869513e-06	2.170000e-10	2.700000e-03	1.968697e-12	8.500000e-02	3838	3710	41
38	-0003.14	-0000.40	-50.990	000.000	090.000	0.9991783	0.0001814	-0.0001814	0.9991783	4.097561e+01	3.000000e-08	-1.204277e+00	1.000000e+00	-4.019658e-06	2.170000e-10	2.700000e-03	1.968697e-12	8.500000e-02	3838	3710	41
5	-0003.79	00000.15	048.260	000.000	090.000	0.9989576	0.0017513	-0.0017513	0.9989578	5.414634e+01	3.000000e-08	-1.204277e+00	1.000000e+00	-4.732839e-06	2.170000e-10	2.700000e-03	1.968697e-12	8.500000e-02	3838	3710	41
37	-0002.60	00000.83	-48.030	000.000	090.000	0.9992745	0.0000888	-0.0000888	0.9992746	3.951220e+01	3.000000e-08	-1.204277e+00	1.000000e+00	-4.056558e-06	2.170000e-10	2.700000e-03	1.968697e-12	8.500000e-02	3838	3710	41
6	-0002.69	00000.08	045.200	000.000	090.000	0.9989202	0.0027975	-0.0027975	0.9989204	5.268293e+01	3.000000e-08	-1.204277e+00	1.000000e+00	-4.626473e-06	2.170000e-10	2.700000e-03	1.968697e-12	8.500000e-02	3838	3710	41
36	-0002.95	00000.13	-45.060	000.000	090.000	0.9997000	0.0002946	-0.0002946	0.9997000	3.804878e+01	3.000000e-08	-1.204277e+00	1.000000e+00	-4.128193e-06	2.170000e-10	2.700000e-03	1.968697e-12	8.500000e-02	3838	3710	41
7	-0003.69	-0000.40	042.160	000.000	090.000	0.9993736	0.0018038	-0.0018038	0.9993736	5.121951e+01	3.000000e-08	-1.204277e+00	1.000000e+00	-4.637004e-06	2.170000e-10	2.700000e-03	1.968697e-12	8.500000e-02	3838	3710	41
35	-0002.56	00000.08	-42.100	000.000	090.000	0.9991921	0.0007428	-0.0007428	0.9991921	3.658537e+01	3.000000e-08	-1.204277e+00	1.000000e+00	-4.195166e-06	2.170000e-10	2.700000e-03	1.968697e-12	8.500000e-02	3838	3710	41
34	-0001.29	-0000.24	-39.140	000.000	090.000	0.9990505	0.0008202	-0.0008202	0.9990506	3.512195e+01	3.000000e-08	-1.204277e+00	1.000000e+00	-4.179277e-06	2.170000e-10	2.700000e-03	1.968697e-12	8.500000e-02	3838	3710	41
8	-0003.31	-0000.61	039.100	000.000	090.000	0.9992361	0.0015459	-0.0015459	0.9992361	4.975610e+01	3.000000e-08	-1.204277e+00	1.000000e+00	-4.629309e-06	2.170000e-10	2.700000e-03	1.968697e-12	8.500000e-02	3838	3710	41
9	-0002.27	-0000.12	036.130	000.000	090.000	0.9992033	0.0014734	-0.0014734	0.9992035	4.829268e+01	3.000000e-08	-1.204277e+00	1.000000e+00	-4.589786e-06	2.170000e-10	2.700000e-03	1.968697e-12	8.500000e-02	3838	3710	41
33	-0000.46	-0000.00	-36.080	000.000	090.000	0.9992290	0.0009486	-0.0009486	0.9992290	3.365854e+01	3.000000e-08	-1.204277e+00	1.000000e+00	-4.242190e-06	2.170000e-10	2.700000e-03	1.968697e-12	8.500000e-02	3838	3710	41
10	-0001.10	-0000.66	033.120	000.000	090.000	0.9990877	0.0008801	-0.0008801	0.9990877	4.682927e+01	3.000000e-08	-1.204277e+00	1.000000e+00	-4.471985e-06	2.170000e-10	2.700000e-03	1.968697e-12	8.500000e-02	3838	3710	41
32	00000.24	00000.90	-33.060	000.000	090.000	0.9994647	0.0010372	-0.0010372	0.9994649	3.219512e+01	3.000000e-08	-1.204277e+00	1.000000e+00	-4.294423e-06	2.170000e-10	2.700000e-03	1.968697e-12	8.500000e-02	3838	3710	41
11	-0001.99	-0000.49	030.110	000.000	090.000	1.0004045	-0.0009623	0.0009623	1.0004045	1.463415e+00	3.000000e-08	-1.204277e+00	1.000000e+00	-4.451906e-06	2.170000e-10	2.700000e-03	1.968697e-12	8.500000e-02	3838	3710	41
31	00000.89	00000.18	-30.030	000.000	090.000	0.9991302	0.0014450	-0.0014450	0.9991302	3.073171e+01	3.000000e-08	-1.204277e+00	1.000000e+00	-4.314841e-06	2.170000e-10	2.700000e-03	1.968697e-12	8.500000e-02	3838	3710	41
12	-0001.31	-0001.11	027.100	000.000	090.000	1.0002865	-0.0011689	0.0011689	1.0002865	2.926829e+00	3.000000e-08	-1.204277e+00	1.000000e+00	-4.496689e-06	2.170000e-10	2.700000e-03	1.968697e-12	8.500000e-02	3838	3710	41
30	00000.42	00000.59	-27.000	000.000	090.000	0.9986736	0.0013252	-0.0013252	0.9986736	2.926829e+01	3.000000e-08	-1.204277e+00	1.000000e+00	-4.301591e-06	2.170000e-10	2.700000e-03	1.968697e-12	8.500000e-02	3838	3710	41
13	00000.90	-0000.70	024.100	000.000	090.000	1.0005665	-0.0006800	0.0006800	1.0005665	4.390244e+00	3.000000e-08	-1.204277e+00	1.000000e+00	-4.518283e-06	2.170000e-10	2.700000e-03	1.968697e-12	8.500000e-02	3838	3710	41
29	-0000.23	00000.63	-23.990	000.000	090.000	0.9991092	0.0016402	-0.0016402	0.9991092	2.780488e+01	3.000000e-08	-1.204277e+00	1.000000e+00	-4.397771e-06	2.170000e-10	2.700000e-03	1.968697e-12	8.500000e-02	3838	3710	41
28	00000.17	00001.24	-21.060	000.000	090.000	0.9996454	0.0016788	-0.0016788	0.9996454	2.634146e+01	3.000000e-08	-1.204277e+00	1.000000e+00	-4.442726e-06	2.170000e-10	2.700000e-03	1.968697e-12	8.500000e-02	3838	3710	41
14	-0000.21	-0001.36	021.040	000.000	090.000	1.0006556	-0.0005945	0.0005945	1.0006556	5.853659e+00	3.000000e-08	-1.204277e+00	1.000000e+00	-4.521487e-06	2.170000e-10	2.700000e-03	1.968697e-12	8.500000e-02	3838	3710	41
27	00000.68	00000.22	-18.020	000.000	090.000	0.9994980	0.0010939	-0.0010939	0.9994981	2.487805e+01	3.000000e-08	-1.204277e+00	1.000000e+00	-4.437126e-06	2.170000e-10	2.700000e-03	1.968697e-12	8.500000e-02	3838	3710	41
15	00001.35	-0000.82	018.000	000.000	090.000	1.0010574	-0.0008196	0.0008196	1.0010574	7.317073e+00	3.000000e-08	-1.204277e+00	1.000000e+00	-4.483041e-06	2.170000e-10	2.700000e-03	1.968697e-12	8.500000e-02	3838	3710	41
16	00000.95	-0000.35	015.030	000.000	090.000	1.0003263	-0.0003548	0.0003548	1.0003263	8.780488e+00	3.000000e-08	-1.204277e+00	1.000000e+00	-4.435414e-06	2.170000e-10	2.700000e-03	1.968697e-12	8.500000e-02	3838	3710	41
26	00001.19	00000.83	-15.000	000.000	090.000	0.9991203	0.0008696	-0.0008696	0.9991203	2.341463e+01	3.000000e-08	-1.204277e+00	1.000000e+00	-4.452648e-06	2.170000e-10	2.700000e-03	1.968697e-12	8.500000e-02	3838	3710	41
17	00000.62	00000.46	012.070	000.000	090.000	1.0004661	0.0004382	-0.0004382	1.0004661	1.024390e+01	3.000000e-08	-1.204277e+00	1.000000e+00	-4.438264e-06	2.170000e-10	2.700000e-03	1.968697e-12	8.500000e-02	3838	3710	41
25	00001.32	00000.87	-11.990	000.000	090.000	0.9999998	0.0012593	-0.0012593	0.9999999	2.195122e+01	3.000000e-08	-1.204277e+00	1.000000e+00	-4.458577e-06	2.170000e-10	2.700000e-03	1.968697e-12	8.500000e-02	3838	3710	41
18	00001.00	00000.06	009.090	000.000	090.000	1.0009072	0.0006205	-0.0006205	1.0009072	1.170732e+01	3.000000e-08	-1.204277e+00	1.000000e+00	-4.425194e-06	2.170000e-10	2.700000e-03	1.968697e-12	8.500000e-02	3838	3710	41
24	00002.10	00000.68	-08.960	000.000	090.000	1.0000291	0.0006517	-0.0006517	1.0000291	2.048780e+01	3.000000e-08	-1.204277e+00	1.000000e+00	-4.464508e-06	2.170000e-10	2.700000e-03	1.968697e-12	8.500000e-02	3838	3710	41
19	00001.02	00000.10	006.080	000.000	090.000	0.9999715	0.0004415	-0.0004415	0.9999715	1.317073e+01	3.000000e-08	-1.204277e+00	1.000000e+00	-4.410670e-06	2.170000e-10	2.700000e-03	1.968697e-12	8.500000e-02	3838	3710	41
23	00001.13	00000.85	-05.880	000.000	090.000	0.9998424	0.0012565	-0.0012565	0.9998425	1.902439e+01	3.000000e-08	-1.204277e+00	1.000000e+00	-4.397709e-06	2.170000e-10	2.700000e-03	1.968697e-12	8.500000e-02	3838	3710	41
20	00000.84	00000.30	003.090	000.000	090.000	1.0003563	0.0005193	-0.0005193	1.0003563	1.463415e+01	3.000000e-08	-1.204277e+00	1.000000e+00	-4.426567e-06	2.170000e-10	2.700000e-03	1.968697e-12	8.500000e-02	3838	3710	41
22	00000.73	-0000.50	-02.800	000.000	090.000	0.9997010	0.0003691	-0.0003691	0.9997011	1.756098e+01	3.000000e-08	-1.204277e+00	1.000000e+00	-4.367147e-06	2.170000e-10	2.700000e-03	1.968697e-12	8.500000e-02	3838	3710	41
21	00000.10	00000.19	000.080	000.000	090.000	0.9999996	0.0008249	-0.0008249	0.9999996	1.609756e+01	3.000000e-08	-1.204277e+00	1.000000e+00	-4.479886e-06	2.170000e-10	2.700000e-03	1.968697e-12	8.500000e-02	3838	3710	41
