1	-0005.11	-0000.19	061.830	000.000	090.000	0.9995280	0.0005337	-0.0005337	0.9995280	1.000000e+00	3.000000e-08	-1.466076e+00	1.000000e+00	-4.449628e-06	2.170000e-10	2.700000e-03	1.968697e-12	8.500000e-02	3838	3710	41
41	-0008.87	-0000.48	-59.150	000.000	090.000	1.0008985	-0.0003891	0.0003891	1.0008985	4.536585e+01	3.000000e-08	-1.466076e+00	1.000000e+00	-2.847836e-06	2.170000e-10	2.700000e-03	1.968697e-12	8.500000e-02	3838	3710	41
2	-0003.62	00000.28	058.760	000.000	090.000	0.9997912	0.0005572	-0.0005572	0.9997914	6.000000e+01	3.000000e-08	-1.466076e+00	1.000000e+00	-3.353351e-06	2.170000e-10	2.700000e-03	1.968697e-12	8.500000e-02	3838	3710	41
40	-0009.04	-0000.05	-56.240	000.000	090.000	1.0015281	-0.0005700	0.0005700	1.0015281	4.390244e+01	3.000000e-08	-1.466076e+00	1.000000e+00	-2.883516e-06	2.170000e-10	2.700000e-03	1.968697e-12	8.500000e-02	3838	3710	41
3	-0003.16	00000.17	055.710	000.000	090.000	0.9997190	0.0001279	-0.0001279	0.9997190	5.853659e+01	3.000000e-08	-1.466076e+00	1.000000e+00	-3.294505e-06	2.170000e-10	2.700000e-03	1.968697e-12	8.500000e-02	3838	3710	41
39	-0009.51	00000.97	-53.340	000.000	090.000	1.0011054	0.0003479	-0.0003479	1.0011054	4.243902e+01	3.000000e-08	-1.466076e+00	1.000000e+00	-3.150643e-06	2.170000e-10	2.700000e-03	1.968697e-12	8.500000e-02	3838	3710	41
4	-0003.25	-0000.40	052.660	000.000	090.000	0.9998847	0.0007112	-0.0007112	0.9998848	5.707317e+01	3.000000e-08	-1.466076e+00	1.000000e+00	-3.213324e-06	2.170000e-10	2.700000e-03	1.968697e-12	8.500000e-02	3838	3710	41
38	-0007.43	-0000.51	-50.430	000.000	090.000	1.0016548	-0.0001538	0.0001538	1.0016548	4.097561e+01	3.000000e-08	-1.466076e+00	1.000000e+00	-3.345362e-06	2.170000e-10	2.700000e-03	1.968697e-12	8.500000e-02	3838	3710	41
5	-0002.40	-0000.27	049.560	000.000	090.000	0.9994877	0.0000910	-0.0000910	0.9994877	5.560976e+01	3.000000e-08	-1.466076e+00	1.000000e+00	-3.342905e-06	2.170000e-10	2.700000e-03	1.968697e-12	8.500000e-02	3838	3710	41
37	-0007.71	00000.45	-47.440	000.000	090.000	1.0027267	-0.0000648	0.0000648	1.0027267	3.951220e+01	3.000000e-08	-1.466076e+00	1.000000e+00	-3.400551e-06	2.170000e-10	2.700000e-03	1.968697e-12	8.500000e-02	3838	3710	41
6	-0002.55	-0000.41	046.470	000.000	090.000	1.0008969	0.0001667	-0.0001667	1.0008969	5.414634e+01	3.000000e-08	-1.466076e+00	1.000000e+00	-3.757109e-06	2.170000e-10	2.700000e-03	1.968697e-12	8.500000e-02	3838	3710	41
36	-0006.56	00000.21	-44.450	000.000	090.000	1.0019044	0.0005922	-0.0005922	1.0019044	3.804878e+01	3.000000e-08	-1.466076e+00	1.000000e+00	-3.402657e-06	2.170000e-10	2.700000e-03	1.968697e-12	8.500000e-02	3838	3710	41
7	-0001.09	-0000.03	043.390	000.000	090.000	1.0004253	0.0009053	-0.0009053	1.0004253	5.268293e+01	3.000000e-08	-1.466076e+00	1.000000e+00	-3.786859e-06	2.170000e-10	2.700000e-03	1.968697e-12	8.500000e-02	3838	3710	41
35	-0006.65	00000.31	-41.460	000.000	090.000	1.0018075	0.0001832	-0.0001832	1.0018075	3.658537e+01	3.000000e-08	-1.466076e+00	1.000000e+00	-3.414733e-06	2.170000e-10	2.700000e-03	1.968697e-12	8.500000e-02	3838	3710	41
8	-0000.91	00000.06	040.370	000.000	090.000	1.0004269	0.0006019	-0.0006019	1.0004269	5.121951e+01	3.000000e-08	-1.466076e+00	1.000000e+00	-3.765869e-06	2.170000e-10	2.700000e-03	1.968697e-12	8.500000e-02	3838	3710	41
34	-0006.02	00000.52	-38.480	000.000	090.000	1.0018326	0.0004280	-0.0004280	1.0018326	3.512195e+01	3.000000e-08	-1.466076e+00	1.000000e+00	-3.443048e-06	2.170000e-10	2.700000e-03	1.968697e-12	8.500000e-02	3838	3710	41
9	-0000.88	00000.24	037.020	000.000	090.000	0.9997686	0.0010374	-0.0010374	0.9997686	4.829268e+01	3.000000e-08	-1.466076e+00	1.000000e+00	-3.817037e-06	2.170000e-10	2.700000e-03	1.968697e-12	8.500000e-02	3838	3710	41
33	-0005.19	00000.23	-35.540	000.000	090.000	1.0017400	0.0002785	-0.0002785	1.0017400	3.365854e+01	3.000000e-08	-1.466076e+00	1.000000e+00	-3.476528e-06	2.170000e-10	2.700000e-03	1.968697e-12	8.500000e-02	3838	3710	41
10	-0001.76	-0000.22	033.580	000.000	090.000	0.9989225	0.0012202	-0.0012202	0.9989225	4.682927e+01	3.000000e-08	-1.466076e+00	1.000000e+00	-3.792277e-06	2.170000e-10	2.700000e-03	1.968697e-12	8.500000e-02	3838	3710	41
32	-0003.94	-0000.14	-32.540	000.000	090.000	1.0022116	-0.0000506	0.0000506	1.0022116	3.219512e+01	3.000000e-08	-1.466076e+00	1.000000e+00	-3.597411e-06	2.170000e-10	2.700000e-03	1.968697e-12	8.500000e-02	3838	3710	41
11	-0001.16	-0000.68	030.140	000.000	090.000	1.0037458	-0.0019147	0.0019147	1.0037458	1.463415e+00	3.000000e-08	-1.466076e+00	1.000000e+00	-4.108374e-06	2.170000e-10	2.700000e-03	1.968697e-12	8.500000e-02	3838	3710	41
31	-0003.83	00000.75	-29.550	000.000	090.000	1.0026826	0.0003165	-0.0003165	1.0026826	3.073171e+01	3.000000e-08	-1.466076e+00	1.000000e+00	-3.602959e-06	2.170000e-10	2.700000e-03	1.968697e-12	8.500000e-02	3838	3710	41
12	-0001.24	00000.45	026.690	000.000	090.000	1.0026999	0.0003148	-0.0003148	1.0026999	2.926829e+00	3.000000e-08	-1.466076e+00	1.000000e+00	-3.892760e-06	2.170000e-10	2.700000e-03	1.968697e-12	8.500000e-02	3838	3710	41
30	-0003.05	00000.27	-26.560	000.000	090.000	1.0022922	0.0007936	-0.0007936	1.0022922	2.926829e+01	3.000000e-08	-1.466076e+00	1.000000e+00	-3.551703e-06	2.170000e-10	2.700000e-03	1.968697e-12	8.500000e-02	3838	3710	41
29	-0002.46	00000.13	-23.570	000.000	090.000	1.0020100	0.0004925	-0.0004925	1.0020100	2.780488e+01	3.000000e-08	-1.466076e+00	1.000000e+00	-3.558054e-06	2.170000e-10	2.700000e-03	1.968697e-12	8.500000e-02	3838	3710	41
13	-0001.11	-0000.26	023.210	000.000	090.000	1.0008009	-0.0000566	0.0000566	1.0008009	4.390244e+00	3.000000e-08	-1.466076e+00	1.000000e+00	-3.812109e-06	2.170000e-10	2.700000e-03	1.968697e-12	8.500000e-02	3838	3710	41
28	-0002.33	-0000.27	-20.710	000.000	090.000	1.0029761	0.0002434	-0.0002434	1.0029761	2.634146e+01	3.000000e-08	-1.466076e+00	1.000000e+00	-3.578914e-06	2.170000e-10	2.700000e-03	1.968697e-12	8.500000e-02	3838	3710	41
14	-0001.14	-0000.82	020.310	000.000	090.000	1.0010513	0.0001799	-0.0001799	1.0010513	5.853659e+00	3.000000e-08	-1.466076e+00	1.000000e+00	-3.723877e-06	2.170000e-10	2.700000e-03	1.968697e-12	8.500000e-02	3838	3710	41
27	-0002.62	00000.46	-17.740	000.000	090.000	1.0026824	0.0005903	-0.0005903	1.0026824	2.487805e+01	3.000000e-08	-1.466076e+00	1.000000e+00	-3.598774e-06	2.170000e-10	2.700000e-03	1.968697e-12	8.500000e-02	3838	3710	41
15	-0000.09	00000.09	017.420	000.000	090.000	1.0020618	-0.0000530	0.0000530	1.0020618	7.317073e+00	3.000000e-08	-1.466076e+00	1.000000e+00	-3.774823e-06	2.170000e-10	2.700000e-03	1.968697e-12	8.500000e-02	3838	3710	41
26	-0001.95	00000.00	-14.780	000.000	090.000	1.0027613	0.0003528	-0.0003528	1.0027613	2.341463e+01	3.000000e-08	-1.466076e+00	1.000000e+00	-3.632729e-06	2.170000e-10	2.700000e-03	1.968697e-12	8.500000e-02	3838	3710	41
16	-0001.37	00000.29	014.690	000.000	090.000	1.0015196	0.0003811	-0.0003811	1.0015196	8.780488e+00	3.000000e-08	-1.466076e+00	1.000000e+00	-3.764998e-06	2.170000e-10	2.700000e-03	1.968697e-12	8.500000e-02	3838	3710	41
17	-0000.77	00000.21	011.970	000.000	090.000	1.0010652	0.0005871	-0.0005871	1.0010652	1.024390e+01	3.000000e-08	-1.466076e+00	1.000000e+00	-3.783873e-06	2.170000e-10	2.700000e-03	1.968697e-12	8.500000e-02	3838	3710	41
25	-0001.69	-0000.06	-11.820	000.000	090.000	1.0027182	0.0004792	-0.0004792	1.0027182	2.195122e+01	3.000000e-08	-1.466076e+00	1.000000e+00	-3.607611e-06	2.170000e-10	2.700000e-03	1.968697e-12	8.500000e-02	3838	3710	41
18	-0000.72	00000.17	009.260	000.000	090.000	0.9997129	0.0007086	-0.0007086	0.9997130	1.170732e+01	3.000000e-08	-1.466076e+00	1.000000e+00	-3.696705e-06	2.170000e-10	2.700000e-03	1.968697e-12	8.500000e-02	3838	3710	41
24	-0000.48	-0000.84	-08.850	000.000	090.000	1.0023052	0.0006876	-0.0006876	1.0023052	2.048780e+01	3.000000e-08	-1.466076e+00	1.000000e+00	-3.564201e-06	2.170000e-10	2.700000e-03	1.968697e-12	8.500000e-02	3838	3710	41
19	-0000.52	-0000.45	006.110	000.000	090.000	1.0001450	0.0009989	-0.0009989	1.0001450	1.317073e+01	3.000000e-08	-1.466076e+00	1.000000e+00	-3.729744e-06	2.170000e-10	2.700000e-03	1.968697e-12	8.500000e-02	3838	3710	41
23	-0000.51	00000.68	-05.470	000.000	090.000	1.0019279	0.0011709	-0.0011709	1.0019279	1.902439e+01	3.000000e-08	-1.466076e+00	1.000000e+00	-3.551401e-06	2.170000e-10	2.700000e-03	1.968697e-12	8.500000e-02	3838	3710	41
20	00000.67	-0000.97	002.970	000.000	090.000	0.9993807	0.0005477	-0.0005477	0.9993807	1.463415e+01	3.000000e-08	-1.466076e+00	1.000000e+00	-3.850004e-06	2.170000e-10	2.700000e-03	1.968697e-12	8.500000e-02	3838	3710	41
22	00000.20	00000.65	-02.090	000.000	090.000	1.0006138	0.0011957	-0.0011957	1.0006138	1.756098e+01	3.000000e-08	-1.466076e+00	1.000000e+00	-3.775495e-06	2.170000e-10	2.700000e-03	1.968697e-12	8.500000e-02	3838	3710	41
21	00000.10	-0000.54	-00.180	000.000	090.000	0.9999999	0.0006101	-0.0006101	0.9999999	1.609756e+01	3.000000e-08	-1.466076e+00	1.000000e+00	-3.724079e-06	2.170000e-10	2.700000e-03	1.968697e-12	8.500000e-02	3838	3710	41
